"nro" "id" "dm" "dm3" "PROTEINS" "LIPIDS" "CARBOH"  "AUC"  
1 2 0 15.6421 40.01072 34.14777 112.0547
2 3 1 16.79147 34.15566 42.93806 140.5518
3 4 1 25.88191 29.68394 44.43415 120.8377
4 6 0 17.60069 37.13408 34.87928 104.3027
5 7 0 21.63483 42.93934 35.42584 80.11892
6 8 0 14.39876 37.82012 46.90137 101.2052
7 9 0 18.51842 42.93009 26.96431 95.63773
8 10 1 24.92202 26.98977 48.08821 121.2607
9 11 0 17.93958 49.91789 30.67195 86.80295
10 12 0 18.66677 41.14348 37.40301 88.42477
11 13 0 18.96003 42.23506 37.88513 106.7121
12 15 0 14.36445 35.6791 30.93192 90.78009
13 16 0 14.58248 45.17296 36.99463 85.4103
14 19 0 16.39705 37.96589 45.42795 97.75463
15 20 0 17.27594 29.78793 39.79361 91.44097
16 21 1 19.17079 43.67671 26.27257 122.5422
17 22 1 19.96819 37.84844 40.09689 102.3371
18 23 0 17.00142 35.44639 40.80933 114.6927
19 24 0 13.52594 33.34464 47.45566 89.38889
20 25 0 15.38146 30.35815 42.36825 84.78588
21 26 0 18.78645 41.04251 40.11956 90.14062
22 27 1 20.71507 50.79776 28.48717 144.8481
23 28 0 17.62428 40.65376 37.29606 95.18142
24 31 0 12.98768 38.47299 36.40326 98.82552
25 33 0 22.30083 28.68518 48.03743 97.25
26 36 0 18.20971 22.41263 57.42947 92.74549
27 37 1 14.5711 41.2266 33.93383 80.47352
28 39 0 17.84921 33.80704 41.85063 94.43171
29 40 0 22.08038 32.15256 45.76706 90.79297
30 41 0 21.69501 27.13148 50.88729 125.6033
31 42 0 18.36621 45.14432 35.65955 82.29745
32 43 0 12.71374 36.62782 49.29484 93.84635
33 44 0 13.41276 35.3078 45.70324 93.63455
34 45 0 21.878 32.46292 45.59654 95.13629
35 46 1 19.68192 42.48096 36.97712 153.9792
36 47 0 14.25405 45.73561 40.01034 82.67431
37 48 0 14.58985 49.01331 31.94079 91.71846
38 50 0 16.0984 32.09659 46.73377 84.17812
39 53 1 20.85475 37.77848 31.94715 131.601
40 55 0 13.85236 42.55477 43.59288 95.55411
41 56 1 20.03967 25.12295 54.69655 115.7089
42 57 0 19.81675 40.1148 40.06845 86.5816
43 58 0 19.11933 42.51181 38.27475 115.2627
44 59 1 16.52856 36.02417 46.46764 110.2535
45 63 1 15.89636 39.35427 36.72883 112.1562
46 64 0 20.71091 36.78829 42.5008 91.13108
47 65 0 20.52929 28.24941 44.38157 116.3484
48 66 1 21.8006 43.27677 34.92263 100.7491
49 67 0 20.15137 33.45307 44.41044 93.59462
50 68 0 12.14335 38.55006 48.82669 93.46354
51 69 1 14.08454 26.62193 33.39485 112.0865
52 70 0 15.91739 31.64143 51.48781 95.93519
53 71 0 16.01252 34.78864 49.11658 114.5408
54 72 0 14.59581 36.57581 48.82838 85.21933
55 76 1 21.90949 42.9275 35.16301 153.8006
56 77 0 21.68597 37.32399 40.99004 95.4129
57 78 1 21.59722 39.09967 37.47838 98.1169
58 80 1 13.13906 40.65591 31.80705 170.5735
59 81 0 14.72691 38.20506 41.97826 103.3116
60 82 0 18.52451 35.79317 44.32036 101.7031
61 83 1 15.35702 35.71023 40.42945 139.1655
62 85 1 19.84285 31.9284 48.09423 136.3683
63 86 0 14.99164 47.22176 35.72203 92.0055
64 87 1 21.1311 38.11333 37.8495 115.6039
65 89 0 18.81963 34.11901 44.71029 99.59433
66 91 0 20.95693 45.29576 28.12329 97.10729
67 92 0 16.0182 33.49233 49.64278 96.07784
68 93 0 14.74176 42.25402 43.00422 99.73021
69 94 1 15.25974 31.74011 52.11817 162.7017
70 100 1 19.35526 35.80945 43.04299 122.708
71 101 0 15.52658 32.86833 51.60509 104.5569
72 102 0 17.5472 35.99754 46.45526 92.7662
73 103 1 19.44649 38.00414 38.45389 131.6499
74 105 0 13.81037 35.80324 50.38639 95.20243
75 109 0 18.39565 32.22334 49.16082 101.7685
76 111 0 21.96587 41.83773 35.40784 103.5373
77 112 0 18.34385 35.56017 41.22705 95.69358
78 113 0 19.17893 39.48032 33.69445 105.4705
79 114 0 19.1598 34.52908 46.31112 91.08536
80 115 0 13.80625 41.68553 41.13035 88.47367
81 116 0 18.68635 45.48065 31.60161 91.3967
82 117 0 13.7901 35.04032 51.10445 89.88976
83 118 0 12.48676 41.70352 45.67689 90.49074
84 119 0 17.05232 34.01213 48.93556 96.87413
85 120 0 15.91646 40.40143 33.22831 110.6348
86 121 0 16.32755 34.38857 43.02346 99.40683
87 122 0 15.88418 44.00388 37.65851 94.25926
88 124 0 19.58899 38.42789 41.76714 105.954
89 125 0 17.8139 26.10103 56.01485 80.21962
90 127 0 18.39605 39.01647 34.69208 98.41377
91 128 0 13.75062 35.82583 47.17265 93.10069
92 129 0 14.98362 43.93969 39.11317 99.67303
93 130 0 12.07223 20.32166 67.55491 94.94242
94 133 0 14.90678 38.97498 33.32047 70.36458
95 134 0 17.48438 40.08151 39.11063 116.6233
96 135 0 14.98871 33.94841 50.99271 83.80556
97 136 0 16.76524 40.41538 42.77632 105.5443
98 137 0 13.46409 46.66128 39.87463 113.1481
99 138 0 16.90007 32.96895 45.52881 90.95949
100 140 0 15.51389 44.31579 38.24366 102.7156
101 141 0 19.8364 35.93834 41.55151 90.99508
102 142 0 19.962 41.81032 33.49657 106.9517
103 143 0 17.6363 38.47577 43.23946 82.31453
104 145 0 14.32383 38.05066 47.59316 92.9728
105 146 0 17.93044 33.00738 48.52166 90.25752
106 147 0 19.0077 42.77001 38.22229 90.25174
107 149 0 17.58378 38.49934 43.91688 91.94676
108 151 0 17.18655 36.96766 45.79829 83.25391
109 156 0 16.25966 40.55789 43.0515 110.9297
110 157 0 18.96783 42.69093 38.34124 96.5434
111 158 1 15.16928 30.41257 46.50326 117.9881
112 161 0 16.82602 40.26732 36.66472 97.15249
113 164 0 19.48611 47.76799 28.73487 97.14091
114 166 0 15.12685 34.35065 49.79162 92.35243
115 171 0 14.81187 32.55407 47.67903 98.98785
116 174 0 16.56513 26.16204 39.37489 92.89236
117 177 0 11.88413 44.68283 43.43304 83.34167
118 180 0 18.35903 43.71884 34.01912 90.05816
119 182 0 18.58708 19.44444 61.66989 103.1646
120 184 1 13.89334 32.73069 37.86798 134.7202
121 187 0 14.67702 33.61553 50.06629 81.95399
122 189 0 15.6409 37.34018 43.81622 91.68461
123 190 0 21.48622 40.83264 35.73286 121.5842
124 192 0 18.48079 30.02022 51.46179 100.4253
125 196 0 18.94378 42.1988 38.7742 87.13368
126 198 0 23.77636 31.10103 45.12261 115.6004
127 199 0 10.41224 42.55645 47.0313 87.75781
128 200 1 20.25168 30.53176 49.21656 92.34086
129 201 1 14.15749 39.00227 26.41189 129.3128
130 202 0 18.83402 34.0291 47.13688 99.72946
131 203 0 22.46759 37.29912 32.50207 99.60648
132 206 0 20.47411 50.31937 29.20652 96.09288
133 207 0 18.45433 35.15894 46.25368 98.91811
134 208 0 19.50043 37.7077 37.72782 68.10243
135 209 1 18.91598 30.29097 50.79305 110.7274
136 211 1 19.80542 39.53087 40.66371 176.4983
137 214 0 15.63342 38.08851 46.27807 98.5842
138 220 0 18.81911 30.79627 30.78477 109.9288
139 221 0 16.56368 38.94647 41.92386 101.9413
140 222 0 12.44165 27.22208 32.51664 91.79919
141 227 0 16.05975 22.94765 47.72198 117.9572
142 228 0 19.92224 34.03699 46.04076 98.97361
143 229 0 16.1697 46.27902 37.46429 92.56308
144 231 0 13.74079 44.63116 34.77498 94.72882
145 235 0 14.74921 29.97208 47.71609 102.4326
146 236 0 17.35456 36.15539 38.06393 104.1412
147 237 0 16.70345 30.0866 53.20996 84.65625
148 240 0 21.42577 37.85815 39.98007 96.58854
149 241 1 17.29488 38.90843 34.21873 89.5923
150 243 1 15.71907 41.80442 37.39692 125.5362
151 244 0 16.80474 45.47223 37.72303 103.8385
152 245 0 18.00014 39.28936 40.90721 91.84115
153 246 0 16.88538 34.12567 46.0973 93.85012
154 248 0 15.27365 44.44707 40.27928 80.11806
155 250 1 21.04209 46.23091 30.31711 179.7373
156 255 0 22.76471 24.07642 53.15887 91.61748
157 256 0 14.91237 45.52215 28.89486 96.97714
158 257 0 19.96675 34.5366 33.02165 107.5813
159 259 0 21.85316 26.92562 51.05156 101.4497
160 263 0 16.16338 38.14922 32.75483 84.83362
161 265 0 15.06194 46.2304 33.33773 88.85799
162 266 0 15.62559 35.45973 44.89318 93.65625
163 271 0 18.36173 36.34212 43.45414 87.78733
164 273 0 15.40714 43.41486 41.178 90.80787
165 275 0 16.20762 44.80166 38.99072 100.8587
166 276 0 28.59665 31.57086 39.46887 103.7454
167 277 0 16.20503 25.98904 46.61955 115.158
168 279 1 15.35595 47.63995 37.0041 148.7196
169 281 0 15.17442 47.59019 37.23539 80.93519
170 283 0 17.54368 33.29288 39.49956 94.1739
171 287 0 16.92173 36.00166 46.23457 97.23061
172 288 0 14.51754 42.06747 38.43081 101.3773
173 289 0 19.61231 28.12681 41.37266 97.25984
174 291 0 17.83145 34.58096 47.53384 99.80174
175 293 0 14.97089 40.71559 43.66774 81.00556
176 294 1 19.66832 33.25468 41.05037 177.916
177 297 0 14.83469 32.74817 44.38793 77.9434
178 298 0 19.17027 33.95662 46.31219 98.66927
179 299 0 19.72767 31.09669 49.08093 94.71644
180 304 0 17.76384 43.15924 35.963 98.05093
181 305 0 15.16881 43.24878 41.54618 105.842
182 306 0 13.68065 34.06806 38.59157 93.53154
183 307 0 14.44992 46.82373 36.071 93.86806
184 308 0 12.59615 35.90492 51.41344 93.77141
185 310 0 14.58591 36.65471 36.86773 85.67824
186 315 0 18.34584 34.88521 46.76895 99.14549
187 317 0 18.72423 26.73079 54.54497 99.58015
188 318 0 16.37038 56.51763 27.112 86.1467
189 321 0 20.02731 34.77892 45.0059 98.15336
190 322 0 18.70924 32.01041 49.28035 87.50665
191 339 0 15.21577 46.60625 38.17798 92.7419
192 341 0 14.05427 34.71183 42.02795 80.40451
193 342 1 21.20891 41.79226 28.7067 118.5582
194 343 0 17.4438 34.41254 47.94721 98.91609
195 347 0 17.77443 41.01199 40.9211 105.5532
196 350 0 14.51587 31.25456 38.91687 77.72439
197 355 0 13.93943 39.28375 46.77682 91.79861
198 357 0 15.95974 46.09904 37.94122 82.148
199 358 0 23.04951 37.01624 39.93424 73.49942
200 367 0 18.17452 43.15856 36.21594 93.89931
201 370 0 22.22438 39.6934 37.99507 110.3128
202 374 0 15.02434 48.16994 36.80572 85.24688
203 378 0 17.83686 35.75084 46.4123 104.1319
204 379 0 22.37665 36.1865 37.10254 86.50405
205 381 0 16.49412 33.31139 50.09302 92.34375
206 382 0 16.70341 49.66463 33.12072 76.13947
207 384 0 20.23414 41.4354 36.4499 91.26678
208 385 0 11.28503 29.32465 29.39755 109.8536
209 387 0 19.01142 35.59579 44.20288 92.34751
210 391 0 17.33811 37.59667 45.06522 66.48264
211 394 0 21.0758 27.8388 51.00675 88.0421
212 400 0 11.84824 38.45211 31.83566 94.35243
213 412 0 11.13673 32.98001 55.88325 91.04601
214 414 0 15.39355 39.16151 45.34673 105.2619
215 417 0 14.06048 51.01859 34.92093 93.40249
216 418 1 18.59832 37.60923 43.56019 148.0752
217 419 1 21.22087 42.0494 36.72973 150.9934
218 420 0 18.46603 40.91637 36.84706 84.78125
219 430 1 23.94879 32.20163 43.84958 176.5145
220 431 0 15.22098 42.9661 41.40429 98.07674
221 432 0 23.36218 35.45135 39.04345 96.25579
222 434 0 17.25668 40.35164 42.02009 81.75289
223 437 0 17.19255 40.42292 39.10318 95.97974
224 443 0 14.53938 44.20933 41.25129 91.0408
225 446 0 21.70048 40.59141 37.62067 95.10098
226 448 0 15.36717 40.17643 43.94541 82.99826
227 449 0 17.62824 36.27371 40.44855 95.62037
228 450 0 15.50961 36.31617 48.17422 89.77083
229 453 0 16.02578 35.35412 48.45167 90.55729
230 454 0 14.55946 36.22339 47.84357 97.79688
231 457 0 14.15605 32.91468 46.45319 93.57335
232 466 0 18.50488 38.65699 37.88674 91.11169
233 469 1 16.94473 32.57971 40.93124 92.0816
234 474 0 13.85485 48.54953 37.55431 98.32841
235 475 0 11.44505 38.77834 34.92567 102.7326
236 479 0 17.25578 36.56551 44.67969 85.82986
237 480 0 13.9141 38.15054 47.09142 99.90336
238 481 0 13.93137 46.80443 36.82891 98.39844
239 482 0 25.67155 35.71973 32.77279 95.56829
240 485 0 12.64794 42.58473 42.18486 89.21846
241 491 0 16.38869 38.27253 38.05444 89.28993
242 494 0 15.67956 44.79415 39.52629 87.25579
243 496 0 14.62547 36.74857 38.55 89.54485
244 497 1 16.82549 40.09887 43.07564 124.281
245 498 0 21.84351 43.22105 34.93544 96.96123
246 502 0 16.79604 35.22814 46.59412 86.31858
247 504 0 16.78131 49.10848 34.11021 84.33304
248 509 1 21.79324 44.10186 27.04705 124.1745
249 511 0 13.82927 39.7882 27.2748 89.06973
250 513 0 12.20525 35.26418 51.2334 88.16493
251 514 0 23.54631 48.96513 27.48856 89.54659
252 515 0 11.49445 42.94385 45.48468 88.92419
253 518 0 15.59341 27.40102 48.26213 88.41522
254 519 0 15.96235 37.65759 46.38005 89.40249
255 521 0 12.79724 34.48038 52.59047 89.94271
256 522 1 17.9211 38.13335 43.94554 132.4991
257 523 0 16.07377 39.25968 39.49887 95.09635
258 525 0 20.39275 39.94375 33.49843 98.09722
259 530 1 19.23073 33.11823 32.05723 130.374
260 532 0 13.77881 33.58171 46.20779 91.34375
261 534 0 24.52163 33.15053 39.23016 89.33015
262 539 0 16.21466 30.39775 33.99239 100.2896
263 545 0 13.79247 40.55141 45.65612 84.85995
264 546 0 15.95887 37.46392 44.67121 91.81641
265 547 0 15.95748 38.71799 40.81119 92.35474
266 549 0 16.97444 45.35339 37.67217 94.47917
267 550 0 14.54203 32.18335 53.27462 86.47917
268 556 0 10.99308 44.17506 44.14689 92.92101
269 558 0 17.64809 34.39113 47.96078 83.87361
270 561 0 19.05874 40.62248 40.31877 83.41262
271 564 0 13.15344 31.67267 42.91169 91.3588
272 567 1 22.47755 34.18099 41.64906 93.32697
273 568 0 17.99217 42.72829 32.755 105.9031
274 572 0 19.97692 39.18632 39.02238 87.54456
275 577 0 17.39879 36.89153 45.70968 85.148
276 578 0 13.97895 39.63682 39.33448 98.30527
277 582 0 16.0279 24.48108 56.63088 105.285
278 588 0 20.897 43.4643 35.6387 87.35851
279 589 1 18.81206 33.21264 46.42146 156.7138
280 591 0 14.50707 39.58697 37.7817 87.45556
281 592 0 21.27437 36.61661 35.14879 96.4294
282 593 0 15.13413 39.79533 43.01954 87.18287
283 597 0 14.60718 34.05108 51.34174 103.8614
284 598 0 17.59307 45.89636 33.10043 97.99537
285 600 0 19.51645 34.59405 45.8895 91.30932
286 601 0 16.18334 40.13649 43.68018 81.60938
287 602 0 16.61923 32.19199 35.04645 99.87789
288 608 0 15.30234 31.33695 50.05011 89.55208
289 610 0 13.5472 33.70646 46.13743 84.84201
290 611 0 16.8271 37.21772 41.38666 72.93779
291 614 0 18.6194 36.38363 44.99697 85.45312
292 616 0 16.73083 35.31368 45.02494 107.8087
293 617 0 14.71176 30.41915 54.86909 94.89786
294 627 0 20.20076 36.70594 43.0933 95.56163
295 636 0 17.42125 40.18566 39.08773 84.62413
296 637 1 16.57354 32.2058 47.23561 102.6832
297 638 0 17.67103 30.82064 51.43137 86.60532
298 639 0 16.09759 41.60796 34.52591 95.69039
299 640 0 12.36091 46.5546 39.57872 93.81626
300 644 1 21.04052 42.8084 27.60827 167.4934
301 646 0 17.42142 38.83563 43.74294 89.09317
302 649 0 13.95986 32.23879 47.64198 93.64236
303 654 0 12.86203 35.36579 51.73115 92.35388
304 657 1 23.6178 32.8968 43.4854 119.14
305 658 0 14.41083 40.06543 45.52374 90.43866
306 660 0 19.88569 47.28882 31.55986 98.93258
307 663 0 12.84479 44.59711 42.5581 88.67812
308 664 0 20.9095 30.72969 48.36081 92.90307
309 668 0 15.22802 43.07769 41.69429 98.29224
310 670 0 17.798 40.42776 41.73238 95.05064
311 678 0 13.71912 42.35239 43.86225 82.77431
312 679 0 18.39259 37.19899 27.51162 96.39034
313 680 1 21.13294 39.51494 39.35213 123.9822
314 681 0 17.64866 40.79171 40.40493 84.23843
315 682 0 18.04804 38.22292 43.72904 87.67332
316 683 0 20.34511 39.43167 40.22322 88.18576
317 688 1 19.18851 36.22262 44.40965 141.0692
318 691 0 24.86894 37.62033 37.51072 100.9615
319 692 0 14.49781 41.85516 43.64703 87.34462
320 693 0 15.90088 39.14974 40.63421 94.08681
321 696 0 22.83142 41.18429 35.98429 95.23148
322 703 0 15.56319 35.94989 48.48693 94.03437
323 714 0 17.56372 41.16149 35.80946 104.4392
324 719 0 16.53369 31.41681 40.67511 87.70602
325 723 0 16.04399 30.1512 47.35651 98.02604
326 725 0 15.41417 30.54764 33.33922 108.7896
327 726 0 11.43795 35.74476 42.78792 91.18924
328 734 0 19.27479 45.60275 31.90986 88.02112
329 739 0 18.35299 31.98885 49.65816 88.45804
330 740 0 26.74526 19.42452 53.83022 101.4606
331 741 0 21.10312 31.06366 42.91466 92.30845
332 743 0 15.68384 35.57322 47.29224 90.38513
333 744 1 17.4378 33.27496 49.28724 117.1884
334 745 0 17.61648 35.5851 43.7274 92.88918
335 749 0 17.58765 36.35428 43.87681 89.93056
336 761 0 15.12886 39.61029 45.02262 85.49236
337 766 0 15.21223 31.93379 52.62223 101.322
338 767 0 20.01469 31.10127 43.14608 112.2766
339 768 0 21.34175 27.31054 51.26377 82.91059
340 769 0 15.13547 42.0376 42.82693 89.77488
341 770 0 13.88358 44.86709 39.19227 88.48756
342 771 0 15.19682 38.31122 46.49197 90.44936
343 777 0 18.88555 42.06384 38.06213 101.524
344 778 0 16.51336 47.43445 32.11124 87.69502
345 781 0 22.45959 29.35054 48.11229 91.24653
346 785 0 18.0047 34.4096 47.5857 83.7853
347 786 0 18.41596 37.80708 43.41801 95.14786
348 789 1 22.72725 40.44272 36.74897 146.7524
349 791 0 12.41382 35.75959 51.82659 83.67361
350 792 0 13.38431 30.45314 31.20212 76.66204
351 795 0 13.34069 40.08141 43.59077 95.21036
352 796 0 15.46765 43.44411 41.01314 94.16551
353 798 0 18.45647 47.56401 33.97953 88.22078
354 803 0 17.28166 34.19283 47.16939 87.60909
355 805 0 18.80653 36.08306 44.5703 88.88455
356 810 0 16.2558 29.14135 39.79904 89.29601
357 814 0 17.06283 38.00997 43.83187 95.60069
358 825 0 11.83035 35.78583 47.73649 94.89728
359 827 0 16.8358 39.23812 38.01314 94.33941
360 840 0 19.21573 41.45492 39.29221 89.06771
361 845 0 20.05838 32.81858 44.85762 98.78993
362 847 0 16.99013 35.05655 47.59329 92.74363
363 848 0 13.49334 43.06011 43.44655 102.7028
364 849 0 17.2637 42.01692 40.61433 91.90133
365 850 0 16.97711 34.09583 48.88874 90.09306
366 860 0 18.75948 30.35671 34.87695 100.1687
367 866 0 19.9937 38.28344 41.72286 88.22512
368 868 0 14.63801 30.52416 49.51851 87.11458
369 872 0 14.31101 49.0571 35.70899 84.03096
370 873 0 14.89206 36.86442 48.24352 92.36835
371 877 0 14.25254 36.05451 49.62127 90.62529
372 878 0 17.56212 39.94256 42.49532 97.28067
373 881 0 16.51643 45.73099 30.05266 87.28501
374 882 0 11.71423 30.01714 51.3387 86.12789
375 886 0 16.53017 34.66788 48.80196 90.4511
376 887 0 16.43283 35.27404 46.75381 89.22685
377 888 0 18.17028 34.39725 47.36879 109.1982
378 889 0 17.66903 35.93452 46.39645 92.78501
379 890 0 18.70366 37.81856 43.47778 109.1383
380 898 0 21.3711 54.31041 19.69332 92.27807
381 901 1 15.96259 25.7989 40.45292 99.59635
382 903 0 20.87253 32.44531 46.68216 89.7963
383 905 0 14.86353 26.35811 47.88467 75.80035
384 908 0 15.05894 38.35005 46.48802 87.92216
385 909 0 12.7369 42.51612 44.74698 99.76418
386 910 0 17.67535 33.94918 48.17981 98.20718
387 922 0 15.30908 35.9402 40.91159 92.16146
388 923 0 15.70473 44.82765 28.83231 95.17159
389 928 0 15.59013 41.80572 40.98087 100.5266
390 934 0 14.26357 44.09389 41.08746 100.2937
391 944 1 16.62058 41.40352 26.66384 109.6762
392 947 0 13.13624 40.48531 40.76669 94.02749
393 948 0 14.98565 50.49835 34.516 88.25521
394 949 0 19.09256 43.89013 37.0173 96.49219
395 969 0 17.63516 36.24297 46.12188 92.73987
396 972 0 14.97446 37.39232 47.11708 91.35446
397 973 0 13.17388 35.01058 47.88768 87.64873
398 981 0 13.98411 32.91744 53.09845 83.71181
399 982 0 21.33911 45.91613 32.74477 88.78183
400 983 0 14.86461 43.15844 41.89955 105.331
401 986 0 13.14443 42.32798 44.52759 102.8569
402 987 0 13.8143 36.82374 49.36196 88.72627
403 988 0 12.2832 43.88805 38.16626 104.401
404 993 0 17.46188 47.79837 30.43492 85.95689
405 995 0 18.44794 36.33696 42.26766 87.73929
406 1002 0 20.63337 33.23919 46.12744 92.89554
407 1004 0 13.54444 30.9237 29.25393 99.48351
408 1005 0 13.80288 41.71846 44.47865 104.9473
409 1006 0 17.69701 33.80838 42.82862 97.67998
410 1007 0 13.08433 38.00095 36.19605 107.5275
411 1008 0 14.33294 48.43735 37.17033 116.6907
412 1012 0 13.48652 37.73712 47.19523 96.35764
413 1013 0 18.23464 27.00496 54.56836 89.03617
414 1020 0 16.90992 44.06592 38.21252 104.1646
415 1026 0 16.58959 48.1067 34.39377 95.70312
416 1031 0 15.29277 33.7737 50.93354 89.3805
417 1033 0 23.32352 34.55646 42.12001 109.7885
418 1034 0 14.01877 28.26479 57.71645 90.73032
419 1036 1 20.61667 36.29161 43.09173 143.1409
420 1041 0 13.7254 35.75726 50.51734 100.9769
421 1042 0 18.60156 30.43553 44.62427 100.544
422 1044 1 17.81622 45.31382 33.93656 128.6279
423 1045 0 18.16431 45.48583 36.20907 89.65828
424 1049 0 17.56679 45.654 34.55415 82.30295
425 1050 1 14.4434 45.37403 40.18257 129.7072
426 1056 0 12.91435 33.74857 33.86382 80.74884
427 1058 0 13.30976 35.87898 50.31682 92.00231
428 1059 0 12.00347 32.52735 55.46917 79.99103
429 1068 0 15.18593 27.5967 46.10442 96.96325
430 1071 1 16.94441 42.31586 38.743 103.4317
431 1074 0 23.90874 36.92868 38.86337 88.318
